Date,Open,High,Low,Close,Volume,Adj Close
2012-05-21,49.82,50.96,49.74,50.59,243300,50.59
2012-05-14,52.83,52.85,49.63,49.70,209800,49.70
2012-05-07,53.51,54.11,52.69,53.39,190400,53.39
2012-04-30,54.76,55.39,53.61,53.72,268800,53.72
2012-04-23,54.39,55.11,53.55,54.79,292400,54.79
2012-04-16,54.13,55.05,53.73,54.89,204100,54.67
2012-04-09,53.71,54.64,52.03,54.08,250400,53.86
2012-04-02,54.76,55.49,54.00,54.34,211600,54.12
2012-03-26,54.53,55.00,54.46,54.77,206200,54.55
2012-03-19,54.55,54.96,53.23,54.29,174000,54.07
2012-03-12,53.51,54.92,53.27,54.74,274500,54.52
2012-03-05,53.02,53.90,51.96,53.54,278100,53.32
2012-02-27,53.04,53.47,52.20,53.20,310300,52.98
2012-02-21,53.03,53.60,51.65,53.23,178500,53.01
2012-02-13,53.28,53.57,51.93,52.82,160300,52.61
2012-02-06,53.35,53.82,51.15,53.04,182000,52.82
2012-01-30,51.75,53.80,51.26,53.50,200200,53.28
2012-01-23,51.53,52.55,51.01,52.28,193700,51.85
2012-01-17,51.84,52.37,51.31,51.55,167900,51.12
2012-01-09,52.10,52.41,51.12,51.48,191300,51.06
2012-01-03,53.18,53.44,51.44,51.85,227000,51.42
2011-12-27,52.33,52.87,51.63,52.17,114000,51.74
2011-12-19,51.47,52.73,49.85,52.58,162600,52.15
2011-12-12,50.12,51.34,48.80,51.18,306800,50.76
2011-12-05,51.00,51.90,49.68,50.73,199700,50.31
2011-11-28,47.56,51.75,47.56,50.95,286400,50.53
2011-11-21,47.31,48.07,46.48,46.51,219700,46.13
2011-11-14,48.34,49.16,47.47,48.03,198200,47.63
2011-11-07,48.56,48.90,46.75,48.60,225900,48.20
2011-10-31,48.69,49.24,45.98,48.76,227300,48.14
2011-10-24,48.75,49.85,47.93,49.13,184600,48.51
2011-10-17,48.30,48.84,46.92,48.49,131200,47.87
2011-10-10,46.83,49.06,46.77,48.64,187700,48.02
2011-10-03,44.35,46.88,41.98,45.95,228200,45.37
2011-09-26,46.41,48.47,44.66,44.67,202600,44.10
2011-09-19,48.26,49.14,45.30,46.15,238700,45.56
2011-09-12,47.67,50.08,47.09,49.23,211300,48.60
2011-09-06,46.67,48.98,46.62,48.08,334200,47.47
2011-08-29,49.42,51.12,47.71,47.99,203200,47.38
2011-08-22,47.80,48.70,46.50,48.50,248900,47.88
2011-08-15,47.48,48.63,45.52,46.66,299400,46.07
2011-08-08,46.32,48.25,44.96,47.80,375600,47.19
2011-08-01,51.53,51.66,46.83,47.74,293000,47.13
2011-07-25,52.56,53.24,49.79,51.05,243200,50.40
2011-07-18,52.40,53.79,47.61,53.04,298700,52.14
2011-07-11,53.50,54.10,52.18,52.66,135400,51.77
2011-07-05,53.26,54.66,52.83,54.21,180700,53.29
2011-06-27,50.62,53.34,50.23,53.24,197600,52.34
2011-06-20,50.45,51.42,49.93,50.61,144900,49.75
2011-06-13,51.45,51.94,50.06,50.48,243800,49.62
2011-06-06,51.16,51.37,50.27,50.40,165600,49.55
2011-05-31,52.62,53.48,51.11,51.15,265900,50.28
2011-05-23,51.70,52.44,51.17,52.23,145800,51.34
2011-05-16,52.05,53.80,51.67,52.52,250200,51.63
2011-05-09,51.34,53.08,51.20,52.31,185900,51.42
2011-05-02,52.54,53.02,51.03,51.26,169300,50.39
2011-04-25,51.25,52.75,50.77,52.45,149500,51.56
2011-04-18,49.74,51.51,48.85,51.37,137900,50.32
2011-04-11,50.54,50.54,49.15,50.23,77700,49.21
2011-04-04,50.94,51.87,50.13,50.36,111400,49.33
2011-03-28,49.15,51.11,48.52,50.78,143700,49.74
2011-03-21,48.46,49.75,48.31,48.97,111300,47.97
2011-03-14,47.74,48.56,46.50,48.00,191500,47.02
2011-03-07,48.09,49.76,47.35,48.14,192500,47.16
2011-02-28,48.21,48.87,47.23,47.94,195800,46.96
2011-02-22,48.84,49.33,46.95,48.04,193700,47.06
2011-02-14,49.73,49.90,48.90,49.49,210300,48.48
2011-02-07,48.81,50.06,48.53,49.48,144800,48.47
2011-01-31,47.79,48.88,47.53,48.60,130900,47.61
2011-01-24,48.13,48.94,47.70,47.81,133100,46.66
2011-01-18,48.35,49.14,47.70,48.01,192800,46.85
2011-01-10,47.22,48.52,46.75,48.47,133200,47.30
2011-01-03,47.78,48.30,47.08,47.38,119400,46.24
2010-12-27,47.71,48.36,47.41,47.57,96600,46.42
2010-12-20,47.16,48.45,46.99,47.87,124600,46.72
2010-12-13,47.17,47.51,46.59,47.11,186200,45.98
2010-12-06,48.16,48.37,46.36,47.06,220400,45.93
2010-11-29,46.03,48.42,45.19,48.22,146300,47.06
2010-11-22,45.30,46.67,44.95,46.35,86400,45.23
2010-11-15,46.21,46.55,45.07,45.58,116200,44.48
2010-11-08,46.08,46.92,45.98,46.01,133700,44.90
2010-11-01,45.03,46.50,44.54,46.42,136600,45.30
2010-10-25,45.20,45.71,44.70,44.88,175400,43.62
2010-10-18,46.94,47.61,44.40,45.05,232100,43.79
2010-10-11,46.39,47.45,46.16,46.76,118700,45.45
2010-10-04,45.29,46.75,44.90,46.44,119100,45.14
2010-09-27,44.76,46.55,44.21,45.28,145100,44.01
2010-09-20,45.35,45.66,43.97,44.83,122400,43.57
2010-09-13,44.38,46.02,44.38,45.27,248000,44.00
2010-09-07,43.78,44.55,43.35,44.01,88100,42.78
2010-08-30,41.89,43.94,40.75,43.85,125700,42.62
2010-08-23,42.36,42.36,40.31,42.01,112000,40.83
2010-08-16,41.69,43.10,41.40,42.06,104500,40.88
2010-08-09,44.00,44.00,41.10,41.85,160100,40.68
2010-08-02,43.78,44.05,43.10,43.77,168100,42.54
2010-07-26,42.91,43.82,42.32,43.07,204300,41.86
2010-07-19,39.83,42.84,39.18,42.70,199800,41.33
2010-07-12,39.23,40.89,38.81,39.83,135400,38.55
2010-07-06,38.35,39.38,37.17,39.23,127500,37.97
2010-06-28,38.90,39.50,36.91,38.03,185300,36.81
2010-06-21,40.86,41.12,38.00,38.74,183200,37.50
2010-06-14,39.36,40.90,38.88,40.52,165700,39.22
2010-06-07,38.56,39.16,37.41,39.13,158700,37.87
2010-06-01,39.72,40.14,38.31,38.46,243700,37.23
2010-05-24,38.56,40.13,37.34,39.86,232800,38.58
2010-05-17,40.87,41.81,37.94,38.71,277100,37.47
2010-05-10,41.61,42.84,40.62,40.81,236600,39.50
2010-05-03,43.29,44.12,39.65,40.34,285000,39.05
2010-04-26,43.27,44.18,42.50,43.04,254500,41.66
2010-04-19,42.64,43.35,42.25,43.24,175700,41.71
2010-04-12,41.00,44.36,40.80,42.85,306800,41.33
2010-04-05,39.53,40.93,39.22,40.92,146900,39.47
2010-03-29,39.17,39.84,38.63,39.50,104800,38.10
2010-03-22,39.51,40.00,38.79,39.12,181700,37.73
2010-03-15,40.39,40.85,39.69,39.81,178600,38.40
2010-03-08,40.30,40.83,40.00,40.40,253800,38.97
2010-03-01,38.56,40.37,38.34,40.35,158800,38.92
2010-02-22,38.34,38.65,37.56,38.53,155000,37.16
2010-02-16,38.40,38.41,37.24,38.12,267000,36.77
2010-02-08,35.03,38.49,34.87,38.04,387100,36.69
2010-02-01,35.41,36.31,34.46,35.03,153800,33.79
2010-01-25,36.22,36.59,35.48,35.48,145800,34.08
2010-01-19,36.11,36.89,35.93,36.06,134400,34.64
2010-01-11,36.84,37.01,36.07,36.24,137200,34.81
2010-01-04,35.89,36.89,35.89,36.78,201400,35.33
2009-12-28,36.42,36.52,35.74,35.74,140300,34.33
2009-12-21,36.15,36.44,35.96,36.37,169900,34.93
2009-12-14,36.94,36.98,35.84,35.93,178000,34.51
2009-12-07,36.41,37.09,36.04,36.58,121500,35.13
2009-11-30,35.81,36.99,35.42,36.53,162400,35.09
2009-11-23,36.86,37.30,35.61,35.91,63800,34.49
2009-11-16,36.34,37.07,35.75,36.34,212700,34.90
2009-11-09,35.62,36.27,35.45,36.00,175500,34.58
2009-11-02,35.38,35.76,34.52,35.44,239200,34.04
2009-10-26,36.85,37.46,35.04,35.31,266600,33.91
2009-10-19,37.69,37.78,36.43,36.96,215500,35.36
2009-10-12,38.07,38.96,36.50,37.49,284900,35.86
2009-10-05,36.21,37.98,35.98,37.98,164400,36.33
2009-09-28,36.64,37.65,36.03,36.12,161000,34.55
2009-09-21,36.47,38.09,36.21,36.38,187800,34.80
2009-09-14,35.28,37.47,35.11,36.70,205900,35.11
2009-09-08,34.70,35.66,34.19,35.48,187100,33.94
2009-08-31,34.47,34.85,33.58,34.30,145600,32.81
2009-08-24,35.76,35.95,34.47,34.77,111800,33.26
2009-08-17,34.96,36.00,34.30,35.63,142100,34.08
2009-08-10,35.11,36.21,34.58,35.45,138900,33.91
2009-08-03,35.34,36.09,34.97,35.32,153800,33.79
2009-07-27,35.90,35.90,34.48,34.92,251600,33.40
2009-07-20,35.39,36.49,35.12,36.06,200300,34.35
2009-07-13,32.75,36.10,32.36,35.14,264700,33.47
2009-07-06,33.36,33.48,32.14,32.71,174200,31.16
2009-06-29,33.49,34.65,33.08,33.65,180000,32.06
2009-06-22,32.73,33.45,31.91,33.36,241800,31.78
2009-06-15,33.84,34.02,32.74,32.91,234900,31.35
2009-06-08,32.08,34.26,32.04,34.02,292300,32.41
2009-06-01,31.55,33.31,31.55,32.44,342800,30.90
2009-05-26,30.53,31.90,30.07,31.01,311700,29.54
2009-05-18,30.90,31.62,30.40,30.68,247800,29.23
2009-05-11,30.68,31.28,30.01,30.65,281500,29.20
2009-05-04,30.85,31.93,30.49,31.36,339300,29.87
2009-04-27,29.81,31.63,29.58,30.69,363200,29.24
2009-04-20,29.24,30.47,28.61,30.28,447100,28.70
2009-04-13,33.19,33.19,29.10,29.67,528300,28.12
2009-04-06,32.73,33.55,31.22,33.50,318800,31.75
2009-03-30,31.41,33.21,30.29,32.85,390100,31.14
2009-03-23,30.08,32.51,29.54,32.10,281700,30.43
2009-03-16,27.58,30.51,27.10,29.49,469600,27.95
2009-03-09,25.45,27.55,25.11,27.42,363500,25.99
2009-03-02,27.62,27.84,24.95,25.55,548100,24.22
2009-02-23,27.56,28.54,26.25,28.06,628900,26.60
2009-02-17,28.24,28.54,26.70,27.32,416100,25.90
2009-02-09,30.60,30.83,28.59,29.18,482800,27.66
2009-02-02,30.38,30.93,29.02,30.86,809100,29.25
2009-01-26,30.05,32.32,29.91,30.82,377000,29.21
2009-01-20,30.23,30.58,29.04,30.01,481700,28.31
2009-01-12,32.56,32.75,29.37,30.44,625900,28.71
2009-01-05,35.69,36.07,32.17,32.54,633300,30.69
2008-12-29,33.61,36.08,32.93,35.82,339400,33.79
2008-12-22,33.17,33.69,32.07,33.58,318500,31.67
2008-12-15,32.50,34.93,31.52,33.44,553700,31.54
2008-12-08,32.90,33.85,30.09,32.24,726500,30.41
2008-12-01,32.49,32.49,29.25,32.14,580400,30.31
2008-11-24,29.52,33.44,29.38,33.44,409500,31.54
2008-11-17,29.53,31.13,27.84,29.23,633900,27.57
2008-11-10,32.20,32.29,28.52,29.88,374600,28.18
2008-11-03,30.31,32.33,30.01,31.59,367300,29.80
2008-10-27,26.78,30.62,25.89,30.32,587000,28.60
2008-10-20,32.53,32.99,25.49,27.16,758400,25.48
2008-10-13,34.36,35.94,27.01,32.23,672600,30.23
2008-10-06,35.49,36.68,23.74,33.53,718100,31.45
2008-09-29,39.00,39.75,36.30,36.52,521600,34.26
2008-09-22,41.07,41.57,39.13,39.75,320700,37.29
2008-09-15,39.15,44.03,37.65,41.39,682400,38.82
2008-09-08,40.62,40.93,38.93,40.28,344400,37.78
2008-09-02,40.79,41.78,38.96,39.74,314200,37.28
2008-08-25,39.86,41.06,39.01,40.39,289100,37.89
2008-08-18,40.53,40.53,38.87,40.10,282800,37.61
2008-08-11,39.73,41.11,39.24,40.48,266900,37.97
2008-08-04,38.81,40.30,37.69,39.73,334700,37.27
2008-07-28,37.17,39.88,36.75,38.71,446900,36.31
2008-07-21,38.39,38.95,36.54,37.59,670700,35.12
2008-07-14,41.88,43.64,37.21,38.07,910100,35.57
2008-07-07,41.45,42.08,40.25,41.42,338600,38.70
2008-06-30,42.40,42.56,40.49,41.16,532000,38.45
2008-06-23,42.29,42.83,40.74,42.36,1391000,39.58
2008-06-16,42.95,43.42,41.85,42.14,440800,39.37
2008-06-09,45.14,45.14,42.60,43.26,484500,40.42
2008-06-02,44.89,46.19,43.80,44.76,422600,41.82
2008-05-27,44.22,45.89,43.23,44.72,551900,41.78
2008-05-19,44.57,44.85,43.20,43.95,420100,41.06
2008-05-12,43.98,45.21,43.26,44.72,267700,41.78
2008-05-05,44.15,44.75,42.49,43.73,348100,40.86
2008-04-28,45.06,45.33,43.81,44.09,389000,41.19
2008-04-21,44.33,45.40,43.39,44.95,470200,41.87
2008-04-14,39.75,45.42,39.20,44.27,746600,41.24
2008-04-07,40.71,41.14,39.56,39.82,309600,37.09
2008-03-31,38.46,41.18,38.22,40.56,348200,37.78
2008-03-24,37.84,39.76,37.81,38.55,309100,35.91
2008-03-17,34.80,38.88,34.51,37.70,842800,35.12
2008-03-10,35.97,37.04,34.70,35.40,563500,32.98
2008-03-03,37.29,38.11,35.02,35.78,688900,33.33
2008-02-25,38.64,40.07,37.29,37.48,486000,34.91
2008-02-19,39.24,39.47,37.80,38.78,441200,36.13
2008-02-11,36.29,39.82,36.29,38.94,1626200,36.27
2008-02-04,38.11,38.15,33.87,36.35,661700,33.86
2008-01-28,36.42,38.72,35.23,38.06,507600,35.46
2008-01-22,33.65,36.80,32.87,36.36,680500,33.75
2008-01-14,38.26,39.38,33.13,35.11,615800,32.59
2008-01-07,40.61,40.85,38.00,38.00,532200,35.28
2007-12-31,41.41,42.72,39.00,40.41,480900,37.51
2007-12-24,42.68,43.51,41.34,41.69,206100,38.70
2007-12-17,41.39,42.74,39.69,42.41,525500,39.37
2007-12-10,43.46,44.01,41.61,41.72,294900,38.73
2007-12-03,42.06,43.77,40.61,43.45,236300,40.33
2007-11-26,41.97,43.51,40.42,42.21,480300,39.18
2007-11-19,41.00,42.46,39.83,42.00,321700,38.99
2007-11-12,41.52,43.26,40.90,41.44,367000,38.47
2007-11-05,42.30,44.00,41.00,41.62,373900,38.64
2007-10-29,44.30,44.75,42.09,42.96,438200,39.88
2007-10-22,40.64,44.73,40.64,44.39,588400,41.09
2007-10-15,39.54,42.47,38.53,41.00,471700,37.95
2007-10-08,39.80,40.11,38.39,39.59,236700,36.64
2007-10-01,37.79,40.11,37.75,39.93,243200,36.96
2007-09-24,36.54,38.22,35.95,37.87,258200,35.05
2007-09-17,33.96,37.02,33.70,36.62,459900,33.90
2007-09-10,34.45,35.09,33.37,34.11,416200,31.57
2007-09-04,36.10,36.65,33.92,34.20,437500,31.66
2007-08-27,36.42,36.66,34.84,36.33,259400,33.63
2007-08-20,37.62,37.83,35.75,36.60,407400,33.88
2007-08-13,39.40,40.09,35.43,37.58,514900,34.78
2007-08-06,36.28,40.03,34.95,38.84,704200,35.95
2007-07-30,35.43,37.37,35.00,36.18,632000,33.49
2007-07-23,38.10,38.34,34.99,35.38,519400,32.75
2007-07-16,37.73,39.42,36.58,37.95,785600,35.00
2007-07-09,37.21,37.91,36.35,37.91,260000,34.96
2007-07-02,35.86,37.13,35.82,37.08,184600,34.20
2007-06-25,35.69,36.78,35.00,35.56,304300,32.79
2007-06-18,37.94,38.00,35.48,35.81,319400,33.03
2007-06-11,36.80,38.17,35.73,37.92,334000,34.97
2007-06-04,37.96,38.30,36.51,36.98,237800,34.10
2007-05-29,37.17,38.31,37.01,38.05,390900,35.09
2007-05-21,36.70,37.80,36.58,37.10,354500,34.22
2007-05-14,37.26,37.47,36.15,36.81,402400,33.95
2007-05-07,75.00,75.44,35.99,37.21,398800,34.32
2007-04-30,75.60,75.60,73.08,74.99,351600,34.58
2007-04-23,74.01,76.58,73.62,75.80,371800,34.83
2007-04-16,69.75,76.98,68.80,75.12,629600,34.52
2007-04-09,68.55,69.98,67.36,69.35,221300,31.87
2007-04-02,67.20,68.76,66.68,68.60,187300,31.52
2007-03-26,68.25,68.34,66.39,66.93,292200,30.76
2007-03-19,65.93,68.56,65.73,68.51,259700,31.48
2007-03-12,66.44,67.45,64.50,65.64,376500,30.16
2007-03-05,65.14,67.35,64.84,66.44,460200,30.53
2007-02-26,67.05,67.75,64.50,65.78,700200,30.23
2007-02-20,65.16,67.05,64.97,66.79,494800,30.69
2007-02-12,66.08,66.59,64.29,65.28,492800,30.00
2007-02-05,61.62,70.34,60.30,66.00,844300,30.33
2007-01-29,60.79,61.98,60.61,61.62,352100,28.32
2007-01-22,60.94,61.80,59.69,61.00,378100,27.93
2007-01-16,60.95,62.00,59.43,60.70,313300,27.79
2007-01-08,58.01,60.44,57.45,60.37,218500,27.64
2007-01-03,59.50,60.70,57.76,58.20,356300,26.65
2006-12-26,58.05,60.48,58.05,59.04,214100,27.03
2006-12-18,59.94,60.00,57.84,58.25,350600,26.67
2006-12-11,60.11,60.42,58.96,59.77,341300,27.37
2006-12-04,60.70,62.29,59.59,60.03,342400,27.49
2006-11-27,60.10,61.27,59.41,60.50,357800,27.70
2006-11-20,60.51,60.94,59.70,60.45,285000,27.68
2006-11-13,56.95,60.69,56.80,60.50,451700,27.70
2006-11-06,55.99,57.45,55.52,57.06,343200,26.13
2006-10-30,54.70,55.96,53.76,55.81,354700,25.55
2006-10-23,55.96,56.75,54.77,55.13,296800,25.14
2006-10-16,55.10,56.75,54.00,56.05,317600,25.56
2006-10-09,52.12,55.13,52.00,54.93,285300,25.05
2006-10-02,50.57,52.75,49.39,52.44,366200,23.92
2006-09-25,49.75,52.15,49.34,50.88,360400,23.20
2006-09-18,49.99,50.85,48.90,49.59,310100,22.62
2006-09-11,49.75,51.50,49.44,50.16,279700,22.88
2006-09-05,51.38,52.24,49.35,49.99,248400,22.80
2006-08-28,50.42,52.65,50.40,51.51,255100,23.49
2006-08-21,51.90,52.13,50.12,50.42,180000,22.99
2006-08-14,50.60,52.75,50.29,52.11,190000,23.76
2006-08-07,51.97,51.99,49.87,50.53,267000,23.04
2006-07-31,51.50,52.74,50.39,52.19,268400,23.80
2006-07-24,49.15,51.90,49.15,51.62,321600,23.54
2006-07-17,47.76,51.60,47.01,48.71,378300,22.12
2006-07-10,49.28,50.74,46.86,47.76,332600,21.69
2006-07-03,50.36,51.35,49.13,49.25,468500,22.36
2006-06-26,50.65,53.00,49.61,49.61,960200,22.53
2006-06-19,50.80,50.95,49.61,50.51,203700,22.93
2006-06-12,51.73,51.99,49.78,50.68,206700,23.01
2006-06-05,52.63,53.10,50.71,51.75,251600,23.50
2006-05-30,51.70,52.82,51.35,52.63,249700,23.90
2006-05-22,52.07,52.63,50.40,51.73,244800,23.49
2006-05-15,52.91,53.49,51.77,52.20,147600,23.70
2006-05-08,54.04,54.70,52.22,52.91,128500,24.02
2006-05-01,52.41,54.17,52.15,53.97,159200,24.51
2006-04-24,52.40,53.02,51.38,52.41,227200,23.80
2006-04-17,53.00,54.22,51.02,52.30,197500,23.66
2006-04-10,53.43,53.45,52.32,52.75,121900,23.86
2006-04-03,55.25,55.33,53.10,53.58,161500,24.24
2006-03-27,54.33,55.34,53.51,55.25,180000,24.99
2006-03-20,55.00,55.31,54.18,54.46,141100,24.63
2006-03-13,54.17,55.33,53.93,55.00,160200,24.88
2006-03-06,53.48,54.30,52.48,54.30,168900,24.56
2006-02-27,53.62,54.20,52.45,53.42,159000,24.16
2006-02-21,53.97,54.26,53.42,53.78,172400,24.33
2006-02-13,56.83,56.83,53.38,54.27,241100,24.55
2006-02-06,55.36,57.45,54.29,56.96,138900,25.76
2006-01-30,54.58,56.87,54.50,55.36,166800,25.04
2006-01-23,55.08,55.55,53.64,54.78,124200,24.69
2006-01-17,54.04,55.20,53.51,55.06,109200,24.81
2006-01-09,53.59,54.75,53.59,54.15,121100,24.40
2006-01-03,52.37,54.06,51.71,53.59,204700,24.15
2005-12-27,52.97,53.71,52.15,52.20,115500,23.53
2005-12-19,52.35,53.15,52.00,53.07,239800,23.92
2005-12-12,54.52,55.00,52.40,52.60,218600,23.71
2005-12-05,54.60,55.48,53.77,54.49,249800,24.56
2005-11-28,54.35,55.00,52.76,54.70,219300,24.65
2005-11-21,53.51,54.14,53.00,54.02,106400,24.35
2005-11-14,52.65,54.43,52.15,53.62,117700,24.17
2005-11-07,52.30,53.08,51.15,52.90,149500,23.84
2005-10-31,50.53,52.65,50.27,52.18,187000,23.52
2005-10-24,48.30,50.77,48.23,50.75,335600,22.78
2005-10-17,52.00,52.90,47.60,48.55,397400,21.79
2005-10-10,49.45,52.21,48.96,51.95,266400,23.32
2005-10-03,50.05,50.90,49.05,49.92,214000,22.41
2005-09-26,50.00,50.74,49.27,49.81,207600,22.36
2005-09-19,48.50,49.04,47.11,48.13,230900,21.61
2005-09-12,49.45,50.25,48.01,48.60,138700,21.82
2005-09-06,50.00,51.00,49.16,49.59,105700,22.26
2005-08-29,48.01,50.45,47.80,49.81,136800,22.36
2005-08-22,49.24,49.53,48.22,48.22,81600,21.65
2005-08-15,50.13,50.70,48.61,49.13,172600,22.05
2005-08-08,50.20,50.73,49.86,50.13,174400,22.50
2005-08-01,49.96,50.64,49.66,50.00,221400,22.45
2005-07-25,50.37,50.99,49.68,49.85,211400,22.38
2005-07-18,50.13,50.99,49.40,50.36,210400,22.52
2005-07-11,51.48,52.10,49.98,50.21,169200,22.45
2005-07-05,50.86,51.39,49.25,51.31,149500,22.94
2005-06-27,49.39,51.38,49.00,51.00,330800,22.80
2005-06-20,49.56,50.13,48.50,49.54,537800,22.15
2005-06-13,48.75,50.95,48.75,49.80,244800,22.27
2005-06-06,49.43,50.64,47.95,49.02,198300,21.92
2005-05-31,50.99,50.99,49.00,49.35,238500,22.07
2005-05-23,50.93,51.91,49.86,51.16,196500,22.88
2005-05-16,49.37,52.61,49.17,50.92,216300,22.77
2005-05-09,51.07,51.49,49.01,49.33,222900,22.06
2005-05-02,48.30,51.06,48.18,51.00,236600,22.80
2005-04-25,49.31,49.87,47.00,48.23,276600,21.57
2005-04-18,48.50,51.02,47.69,49.35,306200,22.00
2005-04-11,52.88,53.37,48.70,48.99,374600,21.84
2005-04-04,53.12,54.87,52.40,52.76,224200,23.52
2005-03-28,50.05,53.20,49.61,53.00,346300,23.62
2005-03-21,51.30,51.81,49.32,49.89,173800,22.24
2005-03-14,51.35,52.80,50.53,51.17,222000,22.81
2005-03-07,52.70,53.26,50.86,51.55,166200,22.98
2005-02-28,51.75,53.35,50.71,52.82,193700,23.54
2005-02-22,49.65,51.91,48.90,51.91,209700,23.14
2005-02-14,49.50,50.46,48.94,49.90,203900,22.24
2005-02-07,50.65,50.65,48.20,49.69,167500,22.15
2005-01-31,47.65,50.20,47.65,50.15,171000,22.35
2005-01-24,48.60,48.85,47.28,47.55,138800,21.13
2005-01-18,48.80,49.96,48.00,48.60,165300,21.59
2005-01-10,48.75,50.48,47.80,48.99,223100,21.77
2005-01-03,52.95,54.89,48.79,49.00,250400,21.77
2004-12-27,53.75,54.22,52.73,52.78,110600,23.45
2004-12-20,52.75,54.89,52.24,53.87,164000,23.94
2004-12-13,52.00,53.84,51.85,52.50,200500,23.33
2004-12-06,52.51,52.51,50.25,51.80,264200,23.02
2004-11-29,51.31,53.92,51.00,52.51,205600,23.33
2004-11-22,49.50,51.54,49.50,51.11,150500,22.71
2004-11-15,50.00,50.94,49.65,49.75,174900,22.11
2004-11-08,49.60,50.05,48.02,50.00,179200,22.22
2004-11-01,47.00,49.97,46.60,49.63,210600,22.05
2004-10-25,45.80,48.01,45.62,46.92,206000,20.85
2004-10-18,45.75,47.75,45.51,46.01,249400,20.38
2004-10-11,45.01,47.08,44.50,46.00,240800,20.37
2004-10-04,45.25,46.31,44.60,45.00,201700,19.93
2004-09-27,44.50,45.60,43.33,45.60,210000,20.20
2004-09-20,45.20,46.55,44.62,44.83,126200,19.86
2004-09-13,45.60,46.30,45.20,45.53,135400,20.17
2004-09-07,45.90,46.85,45.03,45.70,192300,20.24
2004-08-30,45.30,46.90,44.35,45.90,149900,20.33
2004-08-23,44.68,45.70,43.95,45.46,187100,20.13
2004-08-16,41.81,44.45,41.77,44.38,163200,19.66
2004-08-09,40.96,42.96,40.91,41.91,177400,18.56
2004-08-02,42.11,43.26,40.95,40.95,206600,18.14
2004-07-26,42.62,42.73,41.55,42.31,335700,18.74
2004-07-19,42.80,44.86,42.35,42.42,329200,18.79
2004-07-12,42.20,43.38,41.65,42.36,190400,18.70
2004-07-06,43.15,43.32,41.75,42.19,168900,18.62
2004-06-28,42.81,44.07,42.46,43.11,235200,19.03
2004-06-21,42.90,44.20,42.55,42.71,515500,18.85
2004-06-14,41.00,43.16,40.95,43.06,249600,19.01
2004-06-07,40.70,41.70,40.60,40.87,237200,18.04
2004-06-01,40.35,41.26,40.10,40.78,182400,18.00
2004-05-24,39.40,40.92,39.40,40.65,197900,17.94
2004-05-17,38.25,39.65,37.60,39.25,174700,17.32
2004-05-10,39.25,39.35,37.70,38.45,159500,16.97
2004-05-03,39.10,40.54,39.02,39.32,189100,17.35
2004-04-26,41.00,41.55,38.35,39.30,216800,17.35
2004-04-19,40.20,42.58,40.00,41.21,190300,18.16
2004-04-12,39.52,40.78,38.50,40.14,112500,17.69
2004-04-05,39.25,40.00,39.15,39.42,119300,17.37
2004-03-29,37.75,39.18,37.74,39.18,148600,17.26
2004-03-22,38.25,38.55,36.71,37.62,191100,16.58
2004-03-15,38.45,38.90,37.25,38.39,155600,16.91
2004-03-08,40.48,40.68,38.25,38.40,131400,16.92
2004-03-01,40.65,41.07,40.05,40.45,118000,17.82
2004-02-23,40.25,41.02,39.50,40.45,146500,17.82
2004-02-17,40.78,41.20,40.00,40.30,132200,17.76
2004-02-09,40.25,42.00,40.25,40.53,112900,17.86
2004-02-02,40.10,40.30,39.16,40.02,99900,17.63
2004-01-26,39.88,40.80,39.50,40.07,119700,17.62
2004-01-20,39.60,41.06,39.54,39.82,208600,17.51
2004-01-12,39.90,40.55,39.01,39.70,143000,17.46
2004-01-05,38.56,40.25,38.46,40.00,264400,17.59
2003-12-29,39.00,39.48,38.30,38.56,182200,16.96
2003-12-22,38.13,38.77,38.13,38.77,120400,17.05
2003-12-15,37.30,38.23,36.83,38.23,277700,16.81
2003-12-08,36.65,37.00,35.91,36.79,280000,16.18
2003-12-01,35.00,37.05,34.90,36.80,375600,16.19
2003-11-24,35.04,35.07,34.50,34.91,165400,15.35
2003-11-17,36.25,36.35,34.74,35.03,153800,15.41
2003-11-10,36.40,36.60,35.75,36.25,91800,15.94
2003-11-03,35.80,37.18,35.38,36.50,217100,16.05
2003-10-27,35.95,36.05,35.60,35.80,113600,15.75
2003-10-20,37.30,37.30,35.86,36.02,150100,15.81
2003-10-13,38.98,39.80,36.75,37.30,209200,16.37
2003-10-06,38.90,39.44,37.95,38.95,115400,17.10
2003-09-29,35.91,39.02,35.91,39.00,124800,17.12
2003-09-22,37.61,38.19,35.71,35.71,197800,15.68
2003-09-15,38.95,39.00,37.24,37.60,121600,16.51
2003-09-08,38.60,39.45,37.60,38.90,95300,17.08
2003-09-02,39.00,39.70,37.90,38.43,101200,16.87
2003-08-25,37.95,39.20,37.25,39.16,77200,17.19
2003-08-18,38.10,39.10,37.80,37.90,130700,16.64
2003-08-11,36.65,38.00,36.00,38.00,80800,16.68
2003-08-04,36.70,37.14,35.60,36.75,90700,16.13
2003-07-28,37.25,37.95,36.60,37.15,148000,16.31
2003-07-21,36.70,37.75,36.58,37.25,149000,16.35
2003-07-14,36.60,37.90,36.15,36.70,144700,16.08
2003-07-07,36.45,37.30,36.30,36.45,103700,15.97
2003-06-30,35.10,36.59,35.10,36.40,114500,15.95
2003-06-23,35.10,35.50,34.00,35.10,112200,15.38
2003-06-16,35.35,36.50,35.09,35.10,138800,15.38
2003-06-09,35.82,36.10,35.20,35.35,126400,15.49
2003-06-02,35.11,36.02,35.10,35.83,86900,15.70
2003-05-27,34.55,35.23,34.43,35.00,86000,15.34
2003-05-19,34.76,34.77,34.08,34.44,139700,15.09
2003-05-12,35.15,35.19,34.70,34.80,133400,15.25
2003-05-05,34.10,35.33,34.10,35.33,178400,15.48
2003-04-28,32.20,34.71,32.20,34.13,233700,14.95
2003-04-21,31.55,33.83,31.55,32.41,188800,14.17
2003-04-14,31.00,32.12,30.92,31.30,151400,13.69
2003-04-07,32.00,32.97,30.65,30.90,104300,13.51
2003-03-31,32.35,33.00,31.01,31.85,155400,13.93
2003-03-24,32.95,32.95,31.66,32.40,110000,14.17
2003-03-17,30.40,33.02,30.00,33.02,155400,14.44
2003-03-10,30.38,30.50,29.52,30.35,242400,13.27
2003-03-03,30.27,30.65,29.45,30.33,162800,13.27
2003-02-24,30.07,30.35,29.15,30.30,153800,13.25
2003-02-18,29.35,30.23,29.02,30.07,269200,13.15
2003-02-10,27.33,29.87,26.51,29.35,156800,12.84
2003-02-03,28.62,28.75,27.24,27.25,97800,11.92
2003-01-27,28.90,29.14,27.76,28.68,89900,12.52
2003-01-21,30.25,30.29,28.93,29.13,76400,12.72
2003-01-13,30.65,31.02,29.80,30.25,94200,13.21
2003-01-06,31.25,31.49,30.25,30.60,97600,13.36
2002-12-30,30.83,31.33,30.45,31.00,128200,13.53
2002-12-23,32.50,33.01,30.00,30.75,279300,13.43
2002-12-16,30.35,33.00,30.10,33.00,354400,14.41
2002-12-09,31.00,31.30,29.77,30.35,96600,13.25
2002-12-02,30.08,31.50,30.08,31.19,111900,13.62
2002-11-25,28.75,30.35,28.60,29.88,112500,13.05
2002-11-18,28.88,29.28,28.31,28.94,106700,12.64
2002-11-11,28.18,29.20,28.00,28.70,95900,12.53
2002-11-04,28.00,29.00,28.00,28.20,101200,12.31
2002-10-28,27.89,28.09,27.34,28.05,104500,12.25
2002-10-21,26.00,28.10,25.89,27.95,191400,12.18
2002-10-14,26.34,26.64,25.40,26.15,196400,11.39
2002-10-07,25.75,26.74,24.84,26.27,117200,11.44
2002-09-30,26.95,27.57,25.80,25.88,227500,11.27
2002-09-23,29.02,29.02,26.85,26.99,188500,11.76
2002-09-16,30.38,30.50,28.90,29.18,160800,12.71
2002-09-09,30.78,31.64,30.05,30.40,74200,13.24
2002-09-03,32.00,32.15,30.25,30.68,131000,13.37
2002-08-26,31.34,32.30,30.80,32.10,113600,13.98
2002-08-19,31.15,32.00,30.80,31.44,104600,13.70
2002-08-12,30.70,31.27,29.25,31.15,56900,13.57
2002-08-05,29.39,30.93,28.60,30.75,97800,13.40
2002-07-29,28.45,30.97,28.45,29.40,193300,12.81
2002-07-22,27.88,28.42,26.60,28.20,267900,12.29
2002-07-15,29.25,29.26,26.60,27.90,178700,12.13
2002-07-08,31.80,31.80,29.00,29.35,131100,12.76
2002-07-01,31.12,32.60,30.41,31.55,189400,13.72
2002-06-24,34.70,35.20,30.75,30.75,403600,13.37
2002-06-17,34.18,35.50,34.18,34.80,114600,15.13
2002-06-10,36.65,36.83,32.97,33.93,155100,14.75
2002-06-03,37.38,37.40,35.49,36.70,165300,15.95
2002-05-28,36.00,37.85,35.32,37.38,174500,16.25
2002-05-20,36.75,37.01,35.49,36.11,153900,15.70
2002-05-13,36.85,37.80,36.44,37.12,147200,16.14
2002-05-06,37.39,37.70,36.49,36.65,112300,15.93
2002-04-29,36.34,38.74,36.05,37.54,152800,16.32
2002-04-22,35.87,36.90,35.12,36.39,186600,15.79
2002-04-15,37.40,38.00,35.80,35.87,130200,15.57
2002-04-08,35.60,37.55,35.28,37.52,162800,16.28
2002-04-01,35.00,35.85,34.56,35.60,163200,15.45
2002-03-25,33.37,35.19,33.30,35.05,185400,15.21
2002-03-18,34.00,34.55,33.20,33.36,215900,14.48
2002-03-11,34.30,34.30,33.12,33.90,177400,14.71
2002-03-04,34.65,35.00,33.90,34.48,317800,14.96
2002-02-25,33.70,35.12,33.40,34.58,182900,15.01
2002-02-19,33.55,34.25,33.25,33.83,248700,14.68
2002-02-11,33.00,34.14,32.40,33.79,239900,14.67
2002-02-04,31.95,33.15,31.34,33.15,143100,14.39
2002-01-28,30.63,32.22,30.25,32.08,253600,13.90
2002-01-22,29.95,30.80,29.85,30.53,487700,13.23
2002-01-14,30.50,30.50,29.75,29.91,462200,12.96
2002-01-07,34.30,35.28,29.89,30.39,617100,13.16
2001-12-31,34.00,35.42,33.70,34.73,211700,15.04
2001-12-24,34.18,34.90,33.93,33.93,67900,14.70
2001-12-17,32.60,34.40,32.58,34.30,176500,14.86
2001-12-10,33.85,34.25,32.44,32.50,233500,14.08
2001-12-03,32.80,34.33,32.45,34.00,232100,14.73
2001-11-26,32.82,33.15,31.70,32.80,190600,14.21
2001-11-19,32.20,33.00,31.90,32.90,289600,14.25
2001-11-12,30.60,33.10,30.45,32.37,125800,14.02
2001-11-05,30.78,32.30,30.68,30.98,135100,13.42
2001-10-29,30.02,31.27,29.92,30.78,110300,13.33
2001-10-22,29.60,30.49,29.33,29.98,157200,12.96
2001-10-15,33.90,34.74,27.10,29.00,564900,12.54
2001-10-08,32.75,34.45,31.52,34.02,99400,14.71
2001-10-01,31.80,33.00,30.52,32.65,152600,14.12
2001-09-24,30.26,32.50,30.20,31.80,183800,13.75
2001-09-10,35.22,35.26,28.50,30.06,151500,13.00
2001-09-04,35.79,36.70,34.20,35.40,208800,15.30
2001-08-27,35.84,37.00,35.24,35.79,150100,15.47
2001-08-20,35.17,36.25,34.40,35.74,160800,15.45
2001-08-13,33.53,35.35,33.25,35.17,124700,15.21
2001-08-06,33.31,33.62,32.81,33.45,102500,14.46
2001-07-30,33.14,33.55,32.20,33.50,98200,14.48
2001-07-23,33.53,34.10,32.25,33.14,178700,14.33
2001-07-16,31.46,33.59,31.46,32.93,91000,14.21
2001-07-09,31.40,32.19,30.50,31.71,172000,13.68
2001-07-02,32.65,32.79,31.25,31.35,113200,13.53
2001-06-25,33.52,33.81,31.82,32.43,196500,14.00
2001-06-18,34.50,36.00,33.08,33.40,230000,14.41
2001-06-11,34.85,35.15,33.45,34.10,120600,14.72
2001-06-04,33.10,35.40,32.90,34.85,102100,15.04
2001-05-29,34.40,34.40,32.75,33.26,145600,14.35
2001-05-21,35.45,36.99,33.60,34.41,159200,14.85
2001-05-14,34.68,37.21,34.15,35.45,265900,15.30
2001-05-07,33.19,35.88,32.50,34.67,227500,14.96
2001-04-30,31.60,33.50,31.00,33.20,165000,14.33
2001-04-23,31.65,32.80,31.03,31.90,326000,13.75
2001-04-16,30.40,32.51,30.35,31.90,160600,13.75
2001-04-09,30.65,31.40,30.11,30.60,98200,13.18
2001-04-02,30.47,31.00,29.25,30.55,76200,13.16
2001-03-26,29.33,30.90,28.88,30.47,143500,13.13
2001-03-19,30.15,31.00,28.51,29.58,314600,12.75
2001-03-12,30.65,31.60,29.20,29.20,345600,12.58
2001-03-05,29.12,31.35,29.12,30.80,167200,13.27
2001-02-26,29.37,30.23,28.45,29.12,192600,12.55
2001-02-20,28.61,30.00,28.51,29.38,160700,12.66
2001-02-12,29.07,29.56,28.48,28.60,149400,12.32
2001-02-05,28.65,29.60,28.22,28.50,141400,12.28
2001-01-29,28.80,30.33,28.45,28.71,253200,12.35
2001-01-22,28.25,29.69,28.00,28.56,132900,12.29
2001-01-16,29.38,29.62,28.06,28.19,204900,12.12
2001-01-08,27.69,29.56,26.44,29.50,239300,12.69
2001-01-02,29.38,29.38,27.25,27.69,187700,11.91
2000-12-26,28.38,30.12,27.88,29.38,144500,12.64
2000-12-18,27.06,28.38,27.00,28.38,215900,12.20
2000-12-11,25.25,27.56,25.12,27.06,197300,11.64
2000-12-04,25.12,25.88,25.00,25.44,171800,10.94
2000-11-27,24.88,25.56,24.25,25.12,121000,10.81
2000-11-20,24.50,25.06,23.12,24.75,124700,10.65
2000-11-13,22.25,25.00,22.25,24.50,295600,10.54
2000-11-06,20.81,23.12,20.69,22.25,615000,9.57
2000-10-30,20.25,20.94,19.88,20.88,330600,8.98
2000-10-23,19.88,20.44,19.50,20.31,260700,8.72
2000-10-16,23.25,23.25,19.38,19.88,399100,8.53
2000-10-09,22.06,23.25,21.44,23.25,196200,9.98
2000-10-02,24.19,24.56,22.31,22.31,179300,9.57
2000-09-25,22.75,24.19,22.50,23.94,180400,10.27
2000-09-18,24.38,24.38,21.88,23.00,210600,9.87
2000-09-11,24.56,25.38,24.12,24.62,166300,10.57
2000-09-05,23.81,24.62,23.06,24.31,206100,10.43
2000-08-30,23.50,23.94,22.88,23.56,256700,10.11
2000-08-21,24.31,24.56,22.25,23.31,232900,10.00
2000-08-14,25.75,25.88,23.94,24.19,130100,10.38
2000-08-07,24.81,26.19,24.69,25.62,110800,10.99
2000-07-31,24.31,25.19,24.31,24.81,145600,10.65
2000-07-24,24.31,25.38,24.25,24.31,358600,10.43
2000-07-17,28.38,29.00,23.38,24.31,274500,10.41
2000-07-10,28.88,30.00,28.00,28.62,125300,12.26
2000-07-03,27.25,29.69,27.25,28.88,149200,12.36
2000-06-26,27.50,29.31,27.00,27.00,249700,11.56
2000-06-19,28.25,28.94,27.75,28.12,183000,12.04
2000-06-12,27.06,28.25,26.94,28.19,202800,12.07
2000-06-05,27.50,27.50,26.50,27.25,80100,11.67
2000-05-30,26.75,27.44,26.50,27.44,114100,11.75
2000-05-22,27.44,27.50,26.50,26.88,130400,11.51
2000-05-15,27.19,27.50,26.56,27.44,120000,11.75
2000-05-08,27.25,27.50,25.75,27.31,127600,11.70
2000-05-01,28.00,28.00,26.44,27.25,114900,11.67
2000-04-24,25.88,28.50,25.75,28.50,202400,12.18
2000-04-17,24.12,25.88,23.38,25.88,113200,11.06
2000-04-10,25.38,26.44,23.88,24.19,109100,10.34
2000-04-03,26.88,26.88,24.25,25.50,191700,10.90
2000-03-27,25.25,27.62,24.25,26.69,157500,11.41
2000-03-20,24.50,26.94,24.12,25.69,161300,10.98
2000-03-13,22.50,25.00,21.81,24.62,386200,10.53
2000-03-06,24.75,24.75,20.12,22.62,245100,9.67
2000-02-28,23.25,25.44,22.12,24.81,323600,10.61
2000-02-22,23.50,24.38,22.75,23.31,451600,9.96
2000-02-14,22.62,24.19,21.50,23.56,267900,10.07
2000-02-07,22.81,24.00,22.06,22.25,119100,9.51
2000-01-31,22.45,25.94,21.95,23.08,265100,9.84
2000-01-24,25.32,26.07,22.33,22.33,244000,9.52
2000-01-18,26.19,26.79,25.07,25.44,103900,10.85
2000-01-10,25.76,27.32,25.44,26.69,165500,11.38
2000-01-03,25.07,28.56,23.32,26.01,258300,11.09
1999-12-27,25.88,26.19,24.63,25.07,154400,10.69
1999-12-20,27.69,27.75,25.32,25.88,136900,11.04
1999-12-13,26.19,28.19,25.69,27.94,247400,11.92
1999-12-06,27.50,28.06,25.20,26.26,148400,11.20
1999-11-29,26.94,28.19,26.13,27.63,196000,11.78
1999-11-22,27.44,28.06,26.01,26.82,176900,11.44
1999-11-15,26.88,29.19,26.69,27.88,137800,11.89
1999-11-08,27.88,27.88,26.44,26.94,67800,11.49
1999-11-01,26.69,28.56,26.69,27.81,147800,11.86
1999-10-25,25.08,26.82,23.90,26.82,200700,11.44
1999-10-18,26.02,27.08,23.96,25.15,172400,10.70
1999-10-11,25.64,26.27,25.52,26.02,90800,11.08
1999-10-04,25.40,25.89,23.78,25.64,122400,10.92
1999-09-27,22.78,26.64,22.78,25.46,166400,10.84
1999-09-20,25.21,25.58,22.41,22.66,256800,9.64
1999-09-13,26.64,26.64,23.34,25.15,174600,10.70
1999-09-07,26.27,27.01,26.27,26.64,87400,11.34
1999-08-30,25.08,26.27,24.90,26.27,148400,11.18
1999-08-23,26.20,26.20,24.71,25.02,173700,10.65
1999-08-16,27.57,27.89,25.83,26.08,227800,11.10
1999-08-09,28.13,28.51,26.70,27.51,120100,11.71
1999-08-02,28.69,28.88,27.14,28.01,103300,11.92
1999-07-26,29.20,29.39,27.84,28.82,203000,12.27
1999-07-19,29.39,29.82,26.47,29.20,167600,12.41
1999-07-12,28.33,29.82,28.21,29.45,88900,12.51
1999-07-06,29.95,29.95,26.84,27.96,152100,11.88
1999-06-28,27.90,30.69,27.90,30.38,219200,12.91
1999-06-21,29.82,29.82,27.71,28.02,148400,11.91
1999-06-14,29.70,30.32,28.83,29.76,116200,12.65
1999-06-07,27.52,30.20,27.21,29.45,70400,12.51
1999-06-01,27.46,29.51,27.09,27.28,181300,11.59
1999-05-24,29.26,29.26,27.28,27.34,180000,11.62
1999-05-17,29.08,31.31,28.71,29.20,167400,12.41
1999-05-10,25.91,29.45,25.91,29.33,143100,12.46
1999-05-03,27.21,28.58,25.35,25.47,121300,10.82
1999-04-26,26.93,28.79,25.44,27.80,101600,11.79
1999-04-19,28.29,29.78,25.38,26.80,141700,11.37
1999-04-12,25.19,29.16,24.57,28.48,128300,12.08
1999-04-05,25.56,26.06,23.64,25.44,221400,10.79
1999-03-29,25.75,26.80,24.82,25.44,111300,10.79
1999-03-22,27.30,27.30,24.69,25.62,97700,10.87
1999-03-15,28.66,29.04,27.18,27.30,122000,11.58
1999-03-08,27.18,29.41,26.55,28.91,132700,12.27
1999-03-01,27.42,28.04,26.18,27.05,86900,11.48
1999-02-22,26.18,28.66,25.93,27.18,119400,11.53
1999-02-16,24.14,25.93,22.96,25.44,216000,10.79
1999-02-08,26.80,27.42,23.82,23.89,119300,10.14
1999-02-01,27.11,28.73,26.24,27.05,123400,11.48
1999-01-25,26.89,27.51,26.76,27.07,154200,11.47
1999-01-19,26.39,27.45,25.34,27.01,102100,11.44
1999-01-11,26.52,26.64,23.79,26.64,192600,11.29
1999-01-04,27.38,28.50,25.83,26.52,135800,11.23
1998-12-28,27.75,28.13,26.83,27.82,162900,11.79
1998-12-21,28.13,29.86,27.45,27.69,157400,11.73
1998-12-14,27.75,28.13,24.78,27.88,167100,11.81
1998-12-07,28.56,29.86,27.26,27.63,141200,11.71
1998-11-30,27.94,28.68,27.38,28.62,203100,12.13
1998-11-23,27.26,28.87,27.26,28.00,129500,11.86
1998-11-16,27.26,27.26,26.52,27.26,166700,11.55
1998-11-09,27.69,27.75,27.01,27.20,142400,11.52
1998-11-02,26.76,28.75,26.76,27.63,240600,11.71
1998-10-26,29.45,29.45,25.12,26.52,206700,11.23
1998-10-19,23.26,29.69,23.26,29.69,168000,12.56
1998-10-12,20.66,23.26,20.66,23.01,243900,9.74
1998-10-05,21.78,22.27,19.49,20.41,231900,8.64
1998-09-28,23.88,24.13,20.29,21.78,421300,9.21
1998-09-21,27.34,27.78,21.90,23.75,409300,10.05
1998-09-14,26.41,27.71,25.36,27.59,144700,11.67
1998-09-08,28.39,29.01,26.11,26.54,77100,11.23
1998-08-31,28.15,29.14,26.04,28.27,147100,11.96
1998-08-24,59.57,60.87,27.22,27.65,112600,11.70
1998-08-17,59.51,62.23,58.89,59.45,195200,12.58
1998-08-10,59.26,59.51,56.60,59.51,124000,12.59
1998-08-03,61.00,61.00,58.21,59.20,171600,12.52
1998-07-27,64.50,64.56,59.31,60.93,407100,12.89
1998-07-20,64.50,65.24,64.50,64.62,388300,13.65
1998-07-13,63.82,66.11,63.82,64.56,819300,13.64
1998-07-06,62.03,63.76,62.03,63.57,95200,13.43
1998-06-29,59.49,63.14,59.49,61.97,131600,13.09
1998-06-22,58.14,60.30,58.01,59.49,96600,12.57
1998-06-15,59.56,59.74,57.83,58.14,222400,12.28
1998-06-08,62.83,63.02,58.57,59.80,121200,12.63
1998-06-01,64.07,65.06,61.66,62.71,72000,13.25
1998-05-26,62.83,65.12,62.77,64.07,215000,13.53
1998-05-18,64.25,64.99,62.58,62.58,189200,13.22
1998-05-11,62.03,64.75,62.03,64.25,195900,13.57
1998-05-04,60.92,62.09,60.92,61.97,101000,13.09
1998-04-27,57.51,62.44,56.02,61.21,187600,12.91
1998-04-20,58.25,59.73,55.28,57.57,207400,12.15
1998-04-13,59.11,59.85,57.57,58.00,141500,12.24
1998-04-06,60.28,60.41,58.25,59.17,202800,12.48
1998-03-30,59.29,61.21,59.05,60.28,233200,12.72
1998-03-23,62.07,62.81,59.23,59.29,96000,12.51
1998-03-16,60.16,62.32,59.97,62.19,77400,13.12
1998-03-09,58.43,60.96,58.31,60.22,152700,12.70
1998-03-02,56.95,59.85,56.95,58.55,158300,12.35
1998-02-23,58.00,58.00,56.33,56.95,142900,12.01
1998-02-17,54.42,57.14,54.42,57.14,137800,12.05
1998-02-09,53.87,55.59,52.69,54.24,93000,11.44
1998-02-02,50.47,55.04,50.35,54.11,253000,11.42
1998-01-26,49.28,51.99,48.54,50.27,245300,10.59
1998-01-20,48.54,49.53,47.25,49.16,202100,10.36
1998-01-12,48.24,49.16,47.99,48.48,224000,10.21
1998-01-05,54.21,54.21,48.42,48.48,193400,10.21
1997-12-29,52.06,54.77,51.69,54.34,146800,11.45
1997-12-22,53.04,53.23,51.69,52.06,133400,10.96
1997-12-15,55.32,55.72,52.73,53.04,105500,11.17
1997-12-08,57.91,57.91,54.58,55.57,90500,11.70
1997-12-01,56.18,58.28,56.18,57.91,128600,12.20
1997-11-24,55.75,56.18,55.51,56.18,32800,11.83
1997-11-17,52.24,56.74,52.24,55.63,121100,11.72
1997-11-10,52.98,53.47,49.71,51.87,83800,10.93
1997-11-03,54.03,55.44,53.04,53.10,129000,11.19
1997-10-27,55.79,55.98,52.72,54.15,128000,11.41
1997-10-20,52.66,56.04,52.66,56.04,159200,11.79
1997-10-13,56.10,57.08,53.15,53.27,100300,11.20
1997-10-06,55.24,56.22,54.99,55.85,82100,11.75
1997-09-29,55.30,56.10,54.44,55.12,97100,11.59
1997-09-22,55.36,56.22,54.38,55.06,97000,11.58
1997-09-15,54.99,56.10,54.38,55.61,101600,11.70
1997-09-08,54.93,55.18,53.27,55.12,195200,11.59
1997-09-02,55.36,58.19,54.87,54.93,186400,11.55
1997-08-25,52.78,55.36,52.78,55.36,95500,11.64
1997-08-18,53.46,53.58,51.67,52.78,126200,11.10
1997-08-11,53.52,54.87,53.39,53.64,141200,11.28
1997-08-04,50.93,54.75,50.93,53.39,203200,11.23
1997-07-28,47.41,51.16,47.17,50.93,172400,10.71
1997-07-21,44.83,47.48,44.22,47.17,226000,9.90
1997-07-14,45.02,46.06,44.10,44.96,89900,9.44
1997-07-07,44.65,45.14,43.73,45.02,87600,9.45
1997-06-30,43.54,45.08,43.54,44.65,104900,9.38
1997-06-23,43.11,43.61,42.13,43.61,93800,9.16
1997-06-16,43.24,43.36,42.62,42.99,111200,9.03
1997-06-09,44.47,44.96,42.01,43.24,77500,9.08
1997-06-02,43.73,44.83,43.73,44.71,174700,9.39
1997-05-27,42.62,43.61,42.62,43.61,73900,9.16
1997-05-19,40.29,42.62,40.29,42.62,105100,8.95
1997-05-12,40.29,41.40,40.04,40.29,87200,8.46
1997-05-05,39.55,40.90,39.06,40.29,107600,8.46
1997-04-28,39.12,39.97,38.50,39.48,206800,8.28
1997-04-21,36.79,39.61,36.79,38.87,270400,8.15
1997-04-14,36.91,36.91,34.46,36.79,251800,7.71
1997-04-07,37.40,37.52,36.66,36.79,73500,7.71
1997-03-31,37.89,37.89,36.54,37.28,108000,7.81
1997-03-24,39.12,39.12,37.89,37.89,173900,7.94
1997-03-17,37.64,39.36,36.79,39.24,92900,8.23
1997-03-10,39.24,39.36,37.15,37.52,87100,7.87
1997-03-03,38.87,39.85,38.87,39.24,145800,8.23
1997-02-24,37.52,38.99,37.40,38.99,148300,8.17
1997-02-18,34.70,38.14,34.21,37.64,294800,7.89
1997-02-10,34.33,35.93,34.33,35.07,157700,7.35
1997-02-03,34.33,35.19,34.09,34.46,153000,7.22
1997-01-27,33.16,33.16,32.06,32.79,180000,6.86
1997-01-20,34.02,34.14,32.92,33.28,161000,6.96
1997-01-13,34.75,34.87,33.77,34.26,155800,7.17
1997-01-06,34.26,35.24,34.26,34.87,115400,7.29
1996-12-30,32.92,34.63,32.92,34.02,166500,7.12
1996-12-23,32.43,33.28,32.30,33.28,75000,6.96
1996-12-16,32.30,32.67,32.06,32.43,241300,6.78
1996-12-09,33.90,34.26,32.18,32.30,105400,6.76
1996-12-02,33.90,34.87,33.53,33.90,99200,7.09
1996-11-25,33.53,34.75,33.53,33.77,190800,7.06
1996-11-18,34.02,35.36,33.77,33.77,145600,7.06
1996-11-11,33.41,34.51,33.41,34.14,104700,7.14
1996-11-04,31.94,34.02,31.94,33.53,117900,7.01
1996-10-28,31.01,32.06,30.65,31.94,87000,6.68
1996-10-21,31.01,31.38,29.79,31.14,98300,6.50
1996-10-14,31.26,31.87,30.77,31.01,81600,6.47
1996-10-07,31.87,31.99,30.52,31.38,138800,6.55
1996-09-30,31.50,32.84,31.38,31.87,118400,6.65
1996-09-23,31.75,31.99,30.89,31.50,172500,6.57
1996-09-16,32.84,33.21,31.50,31.62,96200,6.60
1996-09-09,34.19,34.43,31.99,32.84,177800,6.85
1996-09-03,34.19,34.19,33.58,34.07,51600,7.11
1996-08-26,34.19,34.43,33.70,34.19,17000,7.14
1996-08-19,35.78,36.26,34.07,34.07,46700,7.11
1996-08-12,35.16,35.65,34.92,35.65,33900,7.44
1996-08-05,33.46,35.78,33.21,35.16,272100,7.34
1996-07-29,30.95,33.87,30.95,33.58,100900,7.01
1996-07-22,32.05,32.05,30.95,31.07,110700,6.47
1996-07-15,32.17,32.41,30.71,32.05,131800,6.67
1996-07-08,33.14,33.14,31.68,32.41,107000,6.75
1996-07-01,29.61,34.36,29.61,33.14,378200,6.90
1996-06-24,31.19,31.19,28.27,29.49,242000,6.14
1996-06-17,35.21,35.70,30.71,31.07,759200,6.47
1996-06-10,40.45,40.45,38.38,38.75,97900,8.07
1996-06-03,41.18,41.31,40.58,40.58,97200,8.45
1996-05-28,38.87,41.31,38.87,41.31,195300,8.60
1996-05-20,36.55,38.87,36.55,38.87,200600,8.10
1996-05-13,37.29,37.53,36.43,36.68,95800,7.64
1996-05-06,37.41,37.65,37.04,37.29,273600,7.77
1996-04-29,36.37,37.58,35.64,37.34,397900,7.76
1996-04-22,38.68,38.68,36.49,36.49,88600,7.58
1996-04-15,40.01,40.26,38.19,38.68,222300,8.04
1996-04-08,41.23,41.84,39.41,39.89,344500,8.29
1996-04-01,40.38,41.96,40.38,41.47,354500,8.62
1996-03-25,36.61,40.74,36.61,40.38,191600,8.39
1996-03-18,37.10,37.10,36.24,36.61,155200,7.61
1996-03-11,36.12,37.83,36.12,36.97,152800,7.69
1996-03-04,36.37,36.73,35.76,36.12,161200,7.51
1996-02-26,36.37,36.85,35.27,36.24,228000,7.53
1996-02-20,35.88,36.85,35.76,36.61,117700,7.61
1996-02-12,36.49,36.61,35.88,36.12,86400,7.51
1996-02-05,36.37,36.61,36.12,36.37,54100,7.56
1996-01-29,35.81,36.54,35.69,36.42,144400,7.56
1996-01-22,33.99,35.93,33.99,35.93,115600,7.46
1996-01-15,34.23,34.60,33.75,33.99,72900,7.05
1996-01-08,35.69,35.69,34.23,34.48,61000,7.15
1996-01-02,36.06,36.18,35.33,35.81,94300,7.43
1995-12-26,34.96,36.30,34.96,36.30,131000,7.53
1995-12-18,35.21,35.21,34.11,34.96,99900,7.25
1995-12-11,36.54,36.78,35.08,35.21,98200,7.30
1995-12-04,35.57,37.15,35.57,36.54,127300,7.58
1995-11-27,33.87,35.45,33.87,35.45,69000,7.35
1995-11-20,34.23,34.23,33.38,33.99,89400,7.05
1995-11-13,33.99,34.23,33.75,34.11,273000,7.08
1995-11-06,34.36,34.48,33.87,33.87,97200,7.03
1995-10-30,32.95,34.36,32.95,34.36,205800,7.13
1995-10-23,32.47,33.20,31.26,32.95,128500,6.82
1995-10-16,31.98,33.08,31.98,32.35,43500,6.70
1995-10-09,30.65,31.98,30.17,31.98,95000,6.62
1995-10-02,31.98,31.98,30.65,30.65,55000,6.35
1995-09-25,32.71,32.83,32.11,32.11,38000,6.65
1995-09-18,32.71,33.20,32.35,32.59,55000,6.75
1995-09-11,32.35,32.83,31.98,32.83,46600,6.80
1995-09-05,30.65,32.35,30.65,32.35,103900,6.70
1995-08-28,31.50,31.74,30.41,30.89,71400,6.40
1995-08-21,31.50,31.98,31.38,31.38,112400,6.50
1995-08-14,31.74,32.35,31.14,31.50,123300,6.52
1995-08-07,31.62,32.11,31.50,31.74,92400,6.57
1995-07-31,31.07,32.16,31.07,31.62,85600,6.55
1995-07-24,30.34,31.19,30.22,30.83,142500,6.37
1995-07-17,30.47,30.71,29.98,30.22,32200,6.24
1995-07-10,30.71,30.95,30.10,30.22,33300,6.24
1995-07-03,31.07,31.43,30.77,30.83,65900,6.37
1995-06-26,30.34,31.07,30.10,31.07,57000,6.42
1995-06-19,30.59,30.71,29.74,30.34,87400,6.27
1995-06-12,30.83,30.95,30.34,30.59,63600,6.32
1995-06-05,29.62,30.83,29.62,30.71,118400,6.34
1995-05-30,29.74,29.86,29.50,29.74,56000,6.14
1995-05-22,29.26,30.95,29.26,29.74,69200,6.14
1995-05-15,29.38,29.38,29.01,29.26,33200,6.04
1995-05-08,29.50,29.62,28.77,29.38,103300,6.07
1995-05-01,28.47,29.74,28.47,29.74,100700,6.14
1995-04-24,28.59,29.20,27.75,28.47,84100,5.87
1995-04-17,28.35,29.08,27.99,28.59,164100,5.90
1995-04-10,27.03,28.59,26.91,28.47,80200,5.87
1995-04-03,27.51,27.51,26.91,26.91,30000,5.55
1995-03-27,27.99,28.23,27.63,27.63,53800,5.70
1995-03-20,26.91,28.35,26.91,27.99,106000,5.77
1995-03-13,26.42,27.03,26.30,26.91,36200,5.55
1995-03-06,26.66,26.66,25.46,26.42,73300,5.45
1995-02-27,27.63,28.11,26.66,26.79,99200,5.52
1995-02-21,26.66,27.63,26.30,27.51,103200,5.67
1995-02-13,25.58,26.79,25.58,26.66,67700,5.50
1995-02-06,25.10,26.30,25.10,25.70,54700,5.30
1995-01-30,25.64,25.76,23.77,24.85,146900,5.12
1995-01-23,25.52,25.88,25.16,25.76,22200,5.30
1995-01-16,24.92,25.76,24.92,25.40,100000,5.22
1995-01-09,26.12,26.12,24.44,24.92,80200,5.12
1995-01-03,27.44,27.56,26.00,26.24,56800,5.40
1994-12-27,27.69,27.81,27.32,27.69,60000,5.69
1994-12-19,25.64,27.93,25.52,27.81,87300,5.72
1994-12-12,24.19,25.76,23.95,25.64,68000,5.27
1994-12-05,25.28,25.52,23.95,24.19,110000,4.98
1994-11-28,25.88,25.88,24.31,24.68,108100,5.07
1994-11-21,26.72,26.72,25.76,26.00,96200,5.35
1994-11-14,26.48,27.44,26.36,26.60,149100,5.47
1994-11-07,26.72,27.44,26.36,26.60,111200,5.47
1994-10-31,26.30,26.78,26.06,26.60,185000,5.47
1994-10-24,26.06,26.42,25.94,26.42,82000,5.42
1994-10-17,26.30,26.30,25.94,25.94,99300,5.32
1994-10-10,26.06,26.66,26.06,26.30,111600,5.40
1994-10-03,25.94,26.18,25.58,26.06,288900,5.35
1994-09-26,24.02,26.06,23.90,25.94,722000,5.32
1994-09-19,24.50,24.62,24.02,24.02,37500,4.93
1994-09-12,23.18,24.26,22.10,24.26,63900,4.98
1994-09-06,23.42,23.42,23.06,23.30,23700,4.78
1994-08-29,21.38,22.82,21.38,22.82,67600,4.68
1994-08-22,21.62,21.62,21.26,21.62,4600,4.44
1994-08-15,22.58,22.58,21.50,21.50,23900,4.41
1994-08-08,23.18,23.18,22.70,22.70,11500,4.66
1994-08-01,23.36,23.48,23.06,23.06,16400,4.73
1994-07-25,23.36,23.72,23.36,23.36,17700,4.78
1994-07-18,22.40,23.72,22.40,23.36,16200,4.78
1994-07-11,22.64,22.76,22.29,22.40,18000,4.59
1994-07-05,21.93,22.88,21.93,22.52,18400,4.61
1994-06-27,22.29,22.29,21.69,21.93,25400,4.49
1994-06-20,23.60,23.60,22.29,22.29,22100,4.56
1994-06-13,23.48,23.84,23.12,23.60,23700,4.83
1994-06-06,24.56,24.56,23.36,23.60,25200,4.83
1994-06-01,23.12,24.56,23.12,24.56,102000,5.03
1994-05-23,22.52,23.48,22.29,23.36,85700,4.78
1994-05-16,21.93,22.64,21.93,22.40,10400,4.59
1994-05-09,21.57,23.48,21.45,21.81,28800,4.46
1994-05-02,21.15,21.87,21.09,21.81,85600,4.46
1994-04-25,20.91,21.75,20.91,21.39,18000,4.36
1994-04-18,20.91,21.03,20.67,20.67,19700,4.22
1994-04-11,21.39,21.51,20.79,20.91,17200,4.27
1994-04-04,20.31,21.63,20.31,21.51,122900,4.39
1994-03-28,21.51,21.63,20.31,20.43,72600,4.17
1994-03-21,21.51,21.63,21.51,21.51,64900,4.39
1994-03-14,21.39,21.75,21.27,21.75,107600,4.44
1994-03-07,21.27,21.75,21.27,21.39,17200,4.36
1994-02-28,20.31,21.39,20.31,21.27,33900,4.34
1994-02-22,20.79,20.79,20.31,20.43,3700,4.17
1994-02-14,20.67,21.03,20.43,20.67,31900,4.22
1994-02-08,20.19,20.79,20.19,20.67,13300,4.22
1994-01-31,19.43,20.19,19.31,20.07,20900,4.10
1994-01-24,19.55,19.79,19.31,19.31,18400,3.93
1994-01-17,19.43,20.03,19.19,19.31,36000,3.93
1994-01-10,19.43,19.55,19.19,19.43,16400,3.96
1994-01-03,19.55,19.79,19.43,19.43,10600,3.96
1993-12-27,19.67,19.79,19.43,19.79,4700,4.03
1993-12-20,19.19,19.91,19.19,19.79,52900,4.03
1993-12-14,20.03,20.15,19.19,19.19,139900,3.91
1993-12-06,20.15,20.15,19.91,20.15,36500,4.10
1993-11-29,20.50,20.62,20.03,20.03,9100,4.08
1993-11-22,20.26,20.26,19.67,20.26,29300,4.13
1993-11-15,20.38,20.74,20.15,20.50,36600,4.17
1993-11-08,19.07,20.38,19.07,20.26,67800,4.13
1993-11-01,20.10,20.45,18.83,19.07,32400,3.88
1993-10-25,20.10,20.93,19.98,20.10,40400,4.08
1993-10-18,20.69,20.69,20.22,20.34,34200,4.13
1993-10-11,20.34,20.93,20.22,20.57,27700,4.18
1993-10-04,19.86,20.57,19.86,20.45,69200,4.15
1993-09-27,18.55,20.22,18.55,19.98,116600,4.06
1993-09-20,17.84,18.67,17.36,18.55,68900,3.77
1993-09-13,17.96,18.31,17.84,17.84,68800,3.62
1993-09-07,18.08,18.43,18.08,18.19,37000,3.69
1993-08-30,18.08,18.19,17.60,18.08,32400,3.67
1993-08-23,18.08,18.19,17.60,18.08,16500,3.67
1993-08-16,18.19,18.19,17.72,17.96,16900,3.65
1993-08-09,17.72,18.08,17.48,18.08,13600,3.67
1993-08-02,17.79,17.79,17.48,17.60,16800,3.57
1993-07-26,17.67,17.91,17.32,17.67,12000,3.58
1993-07-19,17.43,17.55,17.08,17.55,75400,3.55
1993-07-12,17.79,17.79,16.96,17.32,143300,3.51
1993-07-06,17.67,18.03,17.67,17.67,38900,3.58
1993-06-28,17.20,17.79,17.20,17.79,26000,3.60
1993-06-21,17.32,17.55,17.20,17.20,138100,3.48
1993-06-14,16.84,17.32,16.84,17.08,51800,3.46
1993-06-07,16.84,17.20,16.72,16.84,32800,3.41
1993-06-01,16.49,17.08,16.49,16.96,17000,3.43
1993-05-24,16.96,17.08,16.01,16.37,55100,3.31
1993-05-17,17.43,17.43,16.49,17.20,27200,3.48
1993-05-10,16.37,17.79,15.18,17.55,46600,3.55
1993-05-03,16.96,16.96,15.77,16.25,17300,3.29
1993-04-26,18.26,18.50,17.08,17.08,20000,3.46
1993-04-23,18.03,18.74,18.03,18.50,64400,3.75
